"Último: Tiempo (s)","Último: Angulo (rad)","Último: Velocidad 1 (rad/s)","Último: Aceleración 1 (rad/s²)","Último: Posición (m)","Último: Velocidad 2 (m/s)","Último: Aceleración 2 (m/s²)"
0.05,-0.279252680319,-5.87594181505,4.00132891476,0.3294515,-0.203322777778,2.33115080247
0.1,-0.575958653158,-5.73049771071,5.09700783406,0.31556,-0.0979455555556,2.57128785494
0.15,-0.872664625997,-5.39306738866,5.79190744366,0.313159,0.047677,2.7309787037
0.2,-1.11701072128,-5.03236600992,4.51846350794,0.320362,0.193318611111,2.55526530864
0.25,-1.36135681656,-4.90631445283,2.45423459015,0.3339105,0.318513611111,2.05190222222
0.3,-1.60570291183,-4.8481368111,1.12153564897,0.3538045,0.404073055556,1.40744333333
0.35,-1.85004900711,-4.77056662212,-0.808022801849,0.375928,0.452569444444,0.875443981481
0.4,-2.07694180987,-4.83844053747,-4.36332312999,0.399595,0.484011111111,0.479882407407
0.45,-2.32128790515,-5.17781011425,-8.31186122169,0.424634,0.502495,0.0420280864198
0.5,-2.58308729295,-5.75958653158,-10.2942104956,0.450702,0.497731111111,-0.593792283951
0.55,-2.89724655831,-6.36075549616,-8.83976945223,0.476084,0.451997777778,-1.41709814815
0.6,-3.22885911619,-6.74860644104,-4.65421133865,0.4978645,0.357958611111,-2.25998888889
0.65,-3.57792496659,-6.92313936624,1.51908286748,0.5139855,0.216375833333,-2.86277962963
0.7,-3.94444410951,-6.61285861033,7.55231978795,0.520674,0.0495444444444,-2.98447052469
0.75,-4.25860337487,-5.93411945678,9.01753446864,0.51793,-0.1003275,-2.69085617284
0.8,-4.52040276267,-5.52687596465,6.76584426082,0.509355,-0.222568888889,-2.26072993827
0.85,-4.79965544298,-5.3329504922,5.24676139334,0.495292,-0.328136666667,-1.76957299383
0.9,-5.06145483078,-5.06145483078,4.60034315186,0.4752265,-0.403025,-1.23008904321
0.95,-5.30580092606,-4.80935171661,2.94120299873,0.453446,-0.444947222222,-0.807002777778
1,-5.53269372882,-4.73178152763,0.333982758098,0.4306365,-0.477722777778,-0.489886574074
1.05,-5.7770398241,-4.75117407487,-3.22131757004,0.4052545,-0.497731111111,-0.0855912037037
1.1,-6.00393262686,-4.94509954732,-8.50578669413,0.3798725,-0.494110555556,0.542977469136
1.15,-6.24827872214,-5.60444615363,-12.6590238956,0.3551765,-0.461620833333,1.58155817901
1.2,-6.54498469498,-6.5546809686,-9.65317907276,0.330995,-0.359578333333,3.01241867284
1.25,-6.92895713042,-6.97162073436,0.851117351281,0.3136735,-0.147013611111,4.09138657407
1.3,-7.29547627334,-6.37045176978,9.45925360031,0.3143595,0.106139444444,4.02649182099
1.35,-7.57472895366,-5.54626851189,9.02292128732,0.3280795,0.2924075,3.12934567901
1.4,-7.81907504893,-5.24568402961,3.69535761379,0.3462585,0.416840277778,2.11839552469
1.45,-8.08087443673,-5.3329504922,0.452492769036,0.370783,0.502018611111,1.12554814815
1.5,-8.36012711705,-5.35234303945,-0.0484813681109,0.398909,0.529839722222,0.187326697531
1.55,-8.62192650485,-5.29416539772,-1.05581646108,0.426006,0.5084975,-0.485652006173
1.6,-8.88372589265,-5.35234303945,-3.93776445435,0.450359,0.466861111111,-0.876290895062
1.65,-9.14552528045,-5.66262379536,-7.21833702985,0.4724825,0.421223055556,-1.25554938272
1.7,-9.44223125329,-6.15713375009,-8.32263485905,0.4934055,0.351860833333,-1.81551805556
1.75,-9.75639051865,-6.69042879931,-5.00974137147,0.509355,0.244101666667,-2.43191234568
1.8,-10.1229096616,-6.91344309262,3.05432619099,0.519645,0.0980408333333,-2.80773024691
1.85,-10.4894288045,-6.34136294891,9.9763881935,0.519645,-0.0588816666667,-2.72436219136
1.9,-10.7686814848,-5.52687596465,9.55621633654,0.512099,-0.185886944444,-2.36310061728
1.95,-11.0130275801,-5.19720266149,5.07977001429,0.5002655,-0.292598055556,-1.98913533951
2,-11.2748269679,-5.15841756701,2.42406840555,0.482601,-0.386541944444,-1.57536512346
2.05,-11.5366263557,-5.05175855716,1.47060149937,0.460306,-0.452283611111,-1.12687145062
2.1,-11.780972451,-4.95479582094,-0.258567296592,0.4364675,-0.496301944444,-0.700238734568
2.15,-12.0253185462,-5.00327718905,-3.18899665796,0.4103995,-0.526123888889,-0.158743364198
2.2,-12.2696646415,-5.29416539772,-5.4622341405,0.382788,-0.525838055556,0.671549537037
2.25,-12.5489173218,-5.69171261623,-4.64882451997,0.3555195,-0.470576944444,1.73786666667
2.3,-12.8456232947,-5.92442318316,-0.48481368111,0.333053,-0.351575,2.7695662037
2.35,-13.15978256,-5.77897907883,4.37409676734,0.317961,-0.177597777778,3.42110740741
2.4,-13.4390352404,-5.32325421858,6.07094465123,0.3143595,0.0179122222222,3.45339598765
2.45,-13.6833813356,-5.00327718905,4.40641767942,0.3208765,0.191031944444,2.93820787037
2.5,-13.9277274309,-4.89661817921,2.63954115271,0.3352825,0.321943611111,2.14406759259
2.55,-14.1720735262,-4.82874426385,2.24630338914,0.3548335,0.4073125,1.29376635802
2.6,-14.4164196215,-4.68330015952,1.93386790576,0.377986,0.446185833333,0.572301851852
2.65,-14.6433124242,-4.51846350794,-0.527908230541,0.400967,0.450378055556,0.148527469136
2.7,-14.8527519345,-4.65421133865,-4.58418269582,0.422919,0.450473333333,-0.0592310185185
2.75,-15.0970980298,-5.04206228354,-7.62773524946,0.4459,0.447996111111,-0.330666820988
2.8,-15.3588974176,-5.46869832292,-9.34074358938,0.4683665,0.428654722222,-0.838020987654
2.85,-15.6381500979,-6.01168964576,-9.38383813881,0.490147,0.3747275,-1.56684305556
2.9,-15.9523093632,-6.60316233671,-5.28985594277,0.5078115,0.274304722222,-2.32049027778
2.95,-16.3188285061,-6.75830271467,2.51025750441,0.519645,0.129863611111,-2.79158595679
3,-16.6678943565,-6.18622257096,7.17524248042,0.5211885,-0.0262966666667,-2.81069444444
3.05,-16.9296937443,-5.69171261623,5.42452640975,0.5157005,-0.160257222222,-2.57636404321
3.1,-17.2089464247,-5.66262379536,3.31828030626,0.5050675,-0.285833333333,-2.23569305556
3.15,-17.5056523975,-5.51717969103,3.59839487757,0.4865455,-0.393020833333,-1.71473533951
3.2,-17.7674517853,-5.27477285047,3.5122057787,0.463736,-0.458667222222,-1.16133024691
3.25,-18.0292511731,-5.09054365165,1.91770744972,0.4398975,-0.502399722222,-0.704790895062
3.3,-18.2735972684,-5.00327718905,-1.47060149937,0.4131435,-0.530887777778,-0.191031944444
3.35,-18.5179433637,-5.18750638787,-5.68848052502,0.3857035,-0.531078333333,0.548905864198
3.4,-18.7797427515,-5.64323124812,-7.98865210095,0.3586065,-0.490299444444,1.60204290123
3.45,-19.0764487243,-6.18622257096,-5.81237735464,0.334082,-0.383874166667,2.86066234568
3.5,-19.4080612822,-6.467414506,1.05581646108,0.3160745,-0.191508333333,3.78919722222
3.55,-19.7571271326,-6.08925983474,7.78933980983,0.313159,0.0383016666667,3.82132700617
3.6,-20.0363798129,-5.34264676583,8.02097301302,0.3225915,0.221044444444,3.15909351852
3.65,-20.2632726157,-5.06145483078,3.71151806983,0.3373405,0.3558625,2.32864182099
3.7,-20.5250720035,-5.11963247252,1.43289376861,0.359121,0.455904166667,1.42186203704
3.75,-20.7868713913,-5.04206228354,1.40057285654,0.385189,0.502209166667,0.475436111111
3.8,-21.0312174865,-4.9354032737,0.937306450145,0.4117715,0.494586944444,-0.271488734568
3.85,-21.2755635818,-4.90631445283,-0.350143214135,0.43561,0.459905833333,-0.702250154321
3.9,-21.5199096771,-4.94509954732,-2.30017157593,0.457905,0.416554444444,-0.949495987654
3.95,-21.7642557724,-5.11963247252,-4.53570132771,0.477456,0.365961944444,-1.19832978395
4,-22.0260551602,-5.42991322843,-5.92550054689,0.494949,0.302888055556,-1.56641959877
4.05,-22.3053078405,-5.77897907883,-5.57535733276,0.5088405,0.213708055556,-2.0151779321
4.1,-22.6020138133,-6.1183486556,-2.49409704837,0.5174155,0.0991841666667,-2.39808873457
4.15,-22.9336263712,-6.1183486556,2.22475611443,0.5198165,-0.0372536111111,-2.53767067901
4.2,-23.230332344,-5.78867535245,4.86968408581,0.5132995,-0.167784166667,-2.38856095679
4.25,-23.5095850244,-5.47839459654,4.4118044981,0.502152,-0.279926111111,-2.11839552469
4.3,-23.7713844122,-5.29416539772,2.53180477913,0.485002,-0.381301666667,-1.7837058642
4.35,-24.0331838,-5.24568402961,0.764928252417,0.46305,-0.460191666667,-1.38433317901
4.4,-24.2949831878,-5.24568402961,-0.495587318467,0.4385255,-0.523456111111,-0.874173611111
4.45,-24.5567825756,-5.28446912409,-1.80997107614,0.4097135,-0.558518333333,-0.125925462963
4.5,-24.8185819634,-5.42991322843,-2.77959843836,0.3805585,-0.544417222222,0.814042746914
4.55,-25.0978346437,-5.61414242725,-2.27862430121,0.35329,-0.479151944444,1.80699598765
4.6,-25.377087324,-5.78867535245,0.894211900713,0.330652,-0.362436666667,2.71986296296
4.65,-25.6912465894,-5.65292752174,6.1032655633,0.314531,-0.192270555556,3.26241697531
4.7,-25.9704992697,-5.01297346267,8.04252028774,0.310758,-0.00743166666667,3.1896882716
4.75,-26.1799387799,-4.57664114967,4.76733453091,0.31556,0.144345833333,2.7097
4.8,-26.4068315827,-4.53785605519,0.942693268824,0.3267075,0.262395,2.1779970679
4.85,-26.6337243854,-4.57664114967,-1.33054421371,0.3424855,0.358244444444,1.68673425926
4.9,-26.8606171882,-4.71238898038,-2.5910597846,0.3630655,0.435038333333,1.13438780864
4.95,-27.1049632835,-4.85783308472,-3.42601667984,0.38759,0.475626666667,0.532285185185
5,-27.3493093788,-4.99358091543,-5.32217685485,0.412286,0.4810575,0.0547847222222
5.05,-27.593655474,-5.34264676583,-7.76779253511,0.435953,0.473816388889,-0.321721296296
5.1,-27.8729081543,-5.87594181505,-8.02097301302,0.4594485,0.45962,-0.902598148148
5.15,-28.1870674197,-6.30257785442,-5.07977001429,0.483973,0.399404444444,-1.75734567901
5.2,-28.5186799776,-6.41893313789,-0.980400999577,0.5023235,0.277544166667,-2.47452268519
5.25,-28.8328392429,-6.3801480434,2.93042936137,0.5126135,0.1311975,-2.75384537037
5.3,-29.1644518008,-6.13774120285,6.6419474312,0.5153575,-0.0156255555556,-2.61923904321
5.35,-29.4611577737,-5.62383870087,8.24721939754,0.510041,-0.140725277778,-2.23198780864
5.4,-29.7229571615,-5.16811384063,6.94360927722,0.500094,-0.238385,-1.81964675926
5.45,-29.9673032567,-4.90631445283,4.84274999242,0.485688,-0.320133333333,-1.45637376543
5.5,-30.211649352,-4.72208525401,3.23747802608,0.467166,-0.381206388889,-1.15291404321
5.55,-30.4385421548,-4.5863374233,1.83151835086,0.447272,-0.432751666667,-0.883701388889
5.6,-30.6654349575,-4.54755232881,0.705673246948,0.4237765,-0.475626666667,-0.48321712963
5.65,-30.8923277603,-4.53785605519,-0.037707730753,0.398566,-0.490680555556,0.107452160494
5.7,-31.1192205631,-4.54755232881,-0.878051444676,0.3730125,-0.467623333333,0.767938888889
5.75,-31.3461133658,-4.59603369692,-2.16550110896,0.3503745,-0.409313333333,1.36236635802
5.8,-31.5730061686,-4.7608703485,-3.28595939419,0.3315095,-0.3301375,1.92233503086
5.85,-31.8173522639,-5.00327718905,-2.77959843836,0.3160745,-0.219234166667,2.47574012346
5.9,-32.0791516517,-5.12932874614,-0.517134593183,0.308014,-0.0750788888889,2.8338787037
5.95,-32.3409510395,-5.04206228354,1.54601696087,0.308014,0.0811766666667,2.81948117284
6,-32.5852971347,-4.89661817921,2.01467018594,0.316932,0.221711388889,2.4652066358
6.05,-32.82964323,-4.77056662212,0.91037235675,0.3315095,0.332424166667,1.9635691358
6.1,-33.0565360328,-4.77056662212,-1.01810873033,0.3510605,0.418841111111,1.41212253086
6.15,-33.3008821281,-4.89661817921,-2.56951250988,0.374556,0.475150277778,0.819494753086
6.2,-33.5452282233,-5.06145483078,-3.5391398721,0.399595,0.503257222222,0.18907345679
6.25,-33.8070276111,-5.24568402961,-4.65959815733,0.4265205,0.493824722222,-0.422980401235
6.3,-34.0688269989,-5.47839459654,-6.65272106856,0.450359,0.452855277778,-0.895875771605
6.35,-34.3480796792,-5.87594181505,-8.78590126544,0.4717965,0.402643888889,-1.35289151235
6.4,-34.6447856521,-6.467414506,-7.98865210095,0.4913475,0.328613055556,-1.98018981481
6.45,-34.9938515025,-6.98131700798,-1.06659009844,0.506954,0.207133888889,-2.58859135802
6.5,-35.3778239379,-6.76799898829,9.17913902901,0.514157,0.046305,-2.71965123457
6.55,-35.7094364958,-5.80806789969,14.3289376861,0.5102125,-0.0912761111111,-2.32038441358
6.6,-35.9537825911,-4.89661817921,10.9837232865,0.5026665,-0.184076666667,-1.88030694444
6.65,-36.1632221013,-4.62512251778,5.26292184938,0.491862,-0.268969166667,-1.59457947531
6.7,-36.4075681966,-4.5863374233,2.86578753723,0.475741,-0.346334722222,-1.28868487654
6.75,-36.6344609994,-4.40210822447,1.83151835086,0.4560185,-0.400261944444,-0.959076697531
6.8,-36.8439005096,-4.30514548825,-0.571002779973,0.434924,-0.436658055556,-0.705637808642
6.85,-37.0533400198,-4.43119704534,-3.40446940512,0.412629,-0.471529722222,-0.404877623457
6.9,-37.2802328226,-4.71238898038,-4.95587318468,0.387247,-0.489823055556,0.158902160494
6.95,-37.5245789179,-5.01297346267,-4.64343770129,0.361865,-0.467242222222,0.977073611111
7,-37.7863783057,-5.21659520874,-3.24825166343,0.338541,-0.395688611111,1.88507083333
7.05,-38.0481776935,-5.35234303945,-1.46521468069,0.320362,-0.275733888889,2.70504197531
7.1,-38.3274303738,-5.36203931307,0.172378197728,0.309043,-0.112523055556,3.22192391975
7.15,-38.5892297616,-5.27477285047,0.544068686578,0.3085285,0.0661227777778,3.28999459877
7.2,-38.8510291494,-5.25538030323,-0.188538653765,0.3164175,0.2306675,2.98891682099
7.25,-39.1128285372,-5.28446912409,-1.11507146655,0.3321955,0.3764425,2.38289722222
7.3,-39.374627925,-5.40082440756,-1.36286512579,0.355691,0.4810575,1.5051242284
7.35,-39.6538806053,-5.48809087016,-0.544068686578,0.3826165,0.530697222222,0.552558179012
7.4,-39.9331332856,-5.4202169548,-0.6410314228,0.410914,0.529458611111,-0.249680709877
7.45,-40.1949326734,-5.40082440756,-3.61455533361,0.4371535,0.490680555556,-0.75417654321
7.5,-40.4567320612,-5.71110516347,-7.81088708454,0.4597915,0.446948055556,-1.12401311728
7.55,-40.7534380341,-6.2928815808,-9.47541405635,0.4820865,0.389495555556,-1.68832222222
7.6,-41.0850505919,-6.87465799813,-6.28103057971,0.5006085,0.289739722222,-2.43408256173
7.65,-41.4515697349,-7.15584993318,1.56217741691,0.5136425,0.137295277778,-2.97658364198
7.7,-41.8355421703,-6.73891016742,9.40538541353,0.515186,-0.0344905555556,-2.98134753086
7.75,-42.1497014357,-5.8565492678,10.3049841329,0.5084975,-0.176549722222,-2.62659660494
7.8,-42.3940475309,-5.42991322843,5.52148914597,0.4964925,-0.294694166667,-2.25157268519
7.85,-42.6733002113,-5.39112813394,1.5891115103,0.4786565,-0.399023333333,-1.89650416667
7.9,-42.9350995991,-5.40082440756,-2.35367281221E-13,0.4560185,-0.487345833333,-1.45642669753
7.95,-43.2143522794,-5.4202169548,-0.527908230541,0.4292645,-0.554707222222,-0.782389351852
8,-43.4761516672,-5.44930577567,-0.716446884305,0.398909,-0.579860555556,0.195107716049
8.05,-43.7554043475,-5.53657223827,0.140057285655,0.3685535,-0.541463611111,1.30583487654
8.1,-44.0346570278,-5.5074834174,2.35403976272,0.342314,-0.443041666667,2.27454521605
8.15,-44.3139097081,-5.31355794496,4.57879587715,0.32242,-0.299934444444,2.90814243827
8.2,-44.5757090959,-4.94509954732,4.59495633318,0.3112725,-0.132531388889,3.09652777778
8.25,-44.8026018987,-4.70269270676,1.68607424653,0.3099005,0.0237241666667,2.95122916667
8.3,-45.0294947015,-4.77056662212,-1.45982786201,0.3143595,0.16464,2.69773734568
8.35,-45.2738407967,-4.97418836818,-2.43484204291,0.326536,0.296313888889,2.34891481481
8.4,-45.5356401845,-5.06145483078,-2.34865294404,0.3448865,0.405883333333,1.85246466049
8.45,-45.7799862798,-5.14872129338,-3.05971300967,0.3682105,0.487441111111,1.21251558642
8.5,-46.0417856676,-5.37173558669,-3.8461885368,0.3949645,0.533174444444,0.451775462963
8.55,-46.3210383479,-5.55596478552,-4.53031450903,0.423605,0.532412222222,-0.301660030864
8.6,-46.6002910282,-5.74019398434,-6.47495605215,0.4498445,0.493253055556,-0.89778132716
8.65,-46.8795437086,-6.19591884458,-7.91862345812,0.4728255,0.442660555556,-1.49586111111
8.7,-47.2111562664,-6.75830271467,-4.93432590996,0.4954635,0.356529444444,-2.27597438272
8.75,-47.5776754094,-6.88435427176,1.68068742785,0.5115845,0.209134722222,-2.8940625
8.8,-47.9267412598,-6.47711077962,6.37260649725,0.517244,0.0409694444444,-2.99008132716
8.85,-48.2234472326,-6.031082193,6.87896745308,0.5143285,-0.105758333333,-2.71711049383
8.9,-48.5201532054,-5.74019398434,5.78005644256,0.5057535,-0.230762777778,-2.36622361111
8.95,-48.7994058858,-5.45900204929,4.4118044981,0.4910045,-0.343571666667,-1.96875648148
9,-49.0612052736,-5.28446912409,2.82269298779,0.470253,-0.430560277778,-1.50607700617
9.05,-49.3230046614,-5.20689893512,1.75610288935,0.4471005,-0.495158611111,-0.992635648148
9.1,-49.5848040492,-5.10993619889,0.759541433738,0.4200035,-0.536413888889,-0.328814197531
9.15,-49.8291501444,-5.10993619889,-0.441719131678,0.391706,-0.535461111111,0.490521759259
9.2,-50.0909495322,-5.19720266149,-0.808022801849,0.364609,-0.489156111111,1.35326203704
9.25,-50.35274892,-5.22629148236,-0.474040043751,0.340942,-0.396927222222,2.14205617284
9.3,-50.6145483078,-5.23598775598,-0.188538653764,0.323449,-0.267635277778,2.75193981481
9.35,-50.8763476956,-5.23598775598,-0.0808022801848,0.313159,-0.112427777778,3.12304675926
9.4,-51.1381470834,-5.23598775598,-0.231633203197,0.3116155,0.0564997222222,3.19619891975
9.45,-51.3999464712,-5.24568402961,-0.69489960959,0.31899,0.220568055556,2.94376574074
9.5,-51.661745859,-5.28446912409,-1.48137513672,0.3345965,0.362627222222,2.39946496914
9.55,-51.9235452468,-5.41052068118,-1.86383926293,0.35672,0.468480833333,1.64396512346
9.6,-52.2027979272,-5.52687596465,-1.2820628456,0.3829595,0.533269722222,0.749306790123
9.65,-52.4820506075,-5.54626851189,-0.721833702985,0.412286,0.545084166667,-0.158902160494
9.7,-52.7613032878,-5.5074834174,-1.95541518048,0.439726,0.506306111111,-0.845960802469
9.75,-53.0231026756,-5.66262379536,-4.72423998148,0.463393,0.448853611111,-1.30657592593
9.8,-53.3198086484,-6.00199337214,-6.80893881025,0.4848305,0.3781575,-1.78534675926
9.85,-53.6165146213,-6.45771823238,-6.14636011273,0.502495,0.277163055556,-2.35320231481
9.9,-53.9655804717,-6.84556917727,-1.00733509297,0.5143285,0.138533888889,-2.80492484568
9.95,-54.3320996146,-6.63225115758,5.39759231635,0.517244,-0.0200083333333,-2.90364320988
10,-54.6462588799,-6.06986728749,7.47690432644,0.5115845,-0.166259722222,-2.66528996914
10.05,-54.9255115603,-5.70140888985,5.96320827765,0.499751,-0.292216944444,-2.24024521605
10.1,-55.2047642406,-5.53657223827,5.11747774505,0.4817435,-0.397117777778,-1.6464529321
10.15,-55.4840169209,-5.30386167134,6.07633146991,0.4584195,-0.463526388889,-0.92911712963
10.2,-55.7458163087,-4.89661817921,6.38338013461,0.4333805,-0.485630833333,-0.294037808642
10.25,-55.9727091115,-4.51846350794,3.90005672359,0.4090275,-0.483725277778,0.170388425926
10.3,-56.1821486217,-4.44089331896,-0.134670466975,0.3846745,-0.467528055556,0.604590432099
10.35,-56.4090414245,-4.56694487605,-3.82464126209,0.3613505,-0.428464166667,1.14296280864
10.4,-56.6359342272,-4.82874426385,-7.05673246948,0.340599,-0.358530277778,1.81313611111
10.45,-56.8802803225,-5.31355794496,-8.79128808412,0.3243065,-0.253915277778,2.6066412037
10.5,-57.1595330028,-5.90503063591,-6.51805060158,0.3129875,-0.0987077777778,3.34774351852
10.55,-57.4911455607,-6.10865238198,-1.42750694993,0.31213,0.102518888889,3.592925
10.6,-57.7878515335,-5.95351200403,2.11701974084,0.323792,0.293074444444,3.13051018519
10.65,-58.0845575064,-5.7692828052,3.01661846024,0.343686,0.4347525,2.20700385802
10.7,-58.3638101867,-5.59474988,2.13318019688,0.369754,0.516691388889,1.17249891975
10.75,-58.643062867,-5.48809087016,-0.457879587714,0.397537,0.544703055556,0.275035185185
10.8,-58.9048622548,-5.56566105914,-4.45489904753,0.425663,0.534794166667,-0.427109104938
10.85,-59.1841149351,-5.96320827765,-7.74085844172,0.4519025,0.498302777778,-1.04530308642
10.9,-59.4982742005,-6.45771823238,-8.27954030961,0.476427,0.434561944444,-1.73103842593
10.95,-59.8298867584,-6.92313936624,-5.58613097012,0.497007,0.329946944444,-2.47272299383
11,-60.1964059013,-7.19463502767,0.576389598652,0.511413,0.181504166667,-3.05026512346
11.05,-60.5803783367,-6.86496172451,6.52882423894,0.516558,0.00390638888889,-3.17963117284
11.1,-60.8945376021,-6.28318530718,7.59541433738,0.510727,-0.155398055556,-2.89078070988
